Sensor Model:   RX-202A-AA-0.05B
Serial Number:  U04844
Data Format:    4      (Log Ohms/Kelvin)
SetPoint Limit: 40.0      (Kelvin)
Temperature coefficient:  1 (Negative)
Number of Breakpoints:   132

No.   Units      Temperature (K)

  1  3.34277        45.020
  2  3.34659        40.000
  3  3.34778        38.600
  4  3.34895        37.300
  5  3.35016        36.000
  6  3.35145        34.700
  7  3.35269        33.500
  8  3.35399        32.300
  9  3.35536        31.100
 10  3.35680        29.900
 11  3.35832        28.700
 12  3.35979        27.600
 13  3.36133        26.500
 14  3.36296        25.400
 15  3.36469        24.300
 16  3.36636        23.300
 17  3.36812        22.300
 18  3.36998        21.300
 19  3.37197        20.300
 20  3.37345        19.600
 21  3.37476        19.000
 22  3.37614        18.400
 23  3.37745        17.850
 24  3.37882        17.300
 25  3.38024        16.750
 26  3.38173        16.200
 27  3.38329        15.650
 28  3.38492        15.100
 29  3.38647        14.600
 30  3.38809        14.100
 31  3.38978        13.600
 32  3.39156        13.100
 33  3.39342        12.600
 34  3.39539        12.100
 35  3.39725        11.650
 36  3.39920        11.200
 37  3.40126        10.750
 38  3.40343        10.300
 39  3.40573         9.850
 40  3.40790         9.450
 41  3.41019         9.050
 42  3.41262         8.650
 43  3.41521         8.250
 44  3.41798         7.850
 45  3.42057         7.500
 46  3.42332         7.150
 47  3.42625         6.800
 48  3.42896         6.500
 49  3.43186         6.200
 50  3.43520         5.880
 51  3.43860         5.580
 52  3.44227         5.280
 53  3.44600         5.000
 54  3.45004         4.720
 55  3.45447         4.440
 56  3.45899         4.180
 57  3.46298         3.970
 58  3.46644         3.800
 59  3.47014         3.630
 60  3.47412         3.460
 61  3.47816         3.300
 62  3.48250         3.140
 63  3.48691         2.990
 64  3.49166         2.840
 65  3.49682         2.690
 66  3.50207         2.550
 67  3.50778         2.410
 68  3.51358         2.280
 69  3.51990         2.150
 70  3.52686         2.020
 71  3.53394         1.900
 72  3.54173         1.780
 73  3.55038         1.660
 74  3.55921         1.550
 75  3.56902         1.440
 76  3.57905         1.340
 77  3.59026         1.240
 78  3.59780         1.180
 79  3.60310         1.140
 80  3.60871         1.100
 81  3.61465         1.060
 82  3.62094         1.020
 83  3.62763         0.980
 84  3.63474         0.940
 85  3.64231         0.900
 86  3.64939         0.865
 87  3.65692         0.830
 88  3.66497         0.795
 89  3.67356         0.760
 90  3.68275         0.725
 91  3.69264         0.690
 92  3.70178         0.660
 93  3.71155         0.630
 94  3.72208         0.600
 95  3.73345         0.570
 96  3.74577         0.540
 97  3.75919         0.510
 98  3.76986         0.488
 99  3.78017         0.468
100  3.79116         0.448
101  3.80172         0.430
102  3.81293         0.412
103  3.82490         0.394
104  3.83771         0.376
105  3.85145         0.358
106  3.86456         0.342
107  3.87859         0.326
108  3.89367         0.310
109  3.90995         0.294
110  3.92647         0.279
111  3.94437         0.264
112  3.96255         0.250
113  3.98231         0.236
114  4.00241         0.223
115  4.02434         0.210
116  4.04850         0.197
117  4.07310         0.185
118  4.10015         0.173
119  4.13013         0.161
120  4.16340         0.149
121  4.19733         0.138
122  4.23495         0.127
123  4.27322         0.117
124  4.31617         0.107
125  4.36326         0.098
126  4.40936         0.090
127  4.46005         0.082
128  4.52377         0.074
129  4.63015         0.063
130  4.72225         0.054
131  4.76529         0.050
132  4.86130         0.044
