Sensor Model:	RX-202A-AA-0.05B
Serial Number:	U04844
Data Format:	7	(Ohms/Kelvin)
Setpoint Limit:	40

Measurement (ohms)	Temp (K)	Curvature
2.20178E+03	4.50182E+01	2.69907E-03
2.21299E+03	4.20173E+01	2.34435E-03
2.22547E+03	3.90225E+01	1.94962E-03
2.23948E+03	3.60221E+01	1.63195E-03
2.25534E+03	3.30148E+01	1.35919E-03
2.26769E+03	3.09132E+01	1.19706E-03
2.27913E+03	2.91306E+01	1.07085E-03
2.29035E+03	2.75196E+01	9.66398E-04
2.30240E+03	2.59244E+01	8.69720E-04
2.31554E+03	2.43294E+01	7.78663E-04
2.33012E+03	2.27162E+01	6.90811E-04
2.34561E+03	2.11638E+01	6.09750E-04
2.35721E+03	2.00973E+01	5.55767E-04
2.36832E+03	1.91466E+01	5.08333E-04
2.38037E+03	1.81866E+01	4.61660E-04
2.39318E+03	1.72397E+01	4.17005E-04
2.40716E+03	1.62838E+01	3.73706E-04
2.42236E+03	1.53276E+01	3.32633E-04
2.43927E+03	1.43536E+01	2.93591E-04
2.45820E+03	1.33634E+01	2.57281E-04
2.47929E+03	1.23684E+01	2.24382E-04
2.50353E+03	1.13481E+01	1.94148E-04
2.53134E+03	1.03178E+01	1.66065E-04
2.56402E+03	9.27030E+00	1.38659E-04
2.60279E+03	8.21821E+00	1.09649E-04
2.64954E+03	7.16945E+00	8.68730E-05
2.69522E+03	6.33119E+00	7.23948E-05
2.74342E+03	5.60823E+00	5.29952E-05
2.78458E+03	5.09209E+00	4.38912E-05
2.82262E+03	4.68177E+00	3.60643E-05
2.87525E+03	4.19904E+00	2.81994E-05
2.89935E+03	4.00549E+00	2.54001E-05
2.92718E+03	3.80027E+00	2.24406E-05
2.95673E+03	3.60134E+00	1.97880E-05
2.98947E+03	3.40117E+00	1.72811E-05
3.02526E+03	3.20352E+00	1.49805E-05
3.06563E+03	3.00352E+00	1.28225E-05
3.11190E+03	2.80001E+00	1.08053E-05
3.16374E+03	2.59945E+00	8.98974E-06
3.22344E+03	2.39836E+00	7.34043E-06
3.29166E+03	2.20060E+00	5.88604E-06
3.37272E+03	2.00116E+00	4.59156E-06
3.46989E+03	1.80178E+00	3.48037E-06
3.59014E+03	1.60047E+00	2.54587E-06
3.74232E+03	1.39847E+00	1.80809E-06
3.83243E+03	1.29989E+00	1.51413E-06
3.93727E+03	1.20060E+00	1.22673E-06
4.00775E+03	1.14166E+00	1.07254E-06
4.13425E+03	1.04880E+00	8.26516E-07
4.29445E+03	9.50228E-01	6.41661E-07
4.47981E+03	8.56555E-01	4.52238E-07
4.69912E+03	7.66266E-01	3.51156E-07
4.93451E+03	6.88136E-01	2.55568E-07
5.22600E+03	6.11046E-01	1.80828E-07
5.59070E+03	5.36243E-01	1.21653E-07
5.97180E+03	4.75829E-01	8.42099E-08
6.45190E+03	4.17179E-01	5.57434E-08
6.99350E+03	3.66780E-01	3.75005E-08
7.52430E+03	3.28431E-01	2.67916E-08
7.84840E+03	3.08955E-01	2.22929E-08
8.23650E+03	2.88697E-01	1.78657E-08
8.91590E+03	2.59501E-01	1.25822E-08
9.79780E+03	2.30248E-01	8.37845E-09
1.07930E+04	2.05210E-01	5.54570E-09
1.18939E+04	1.84048E-01	3.66046E-09
1.32312E+04	1.64382E-01	2.35346E-09
1.46296E+04	1.48474E-01	1.57688E-09
1.67905E+04	1.29865E-01	9.58409E-10
1.94807E+04	1.13122E-01	6.02220E-10
2.34123E+04	9.64495E-02	3.42031E-10
2.77315E+04	8.44834E-02	1.87481E-10
3.27057E+04	7.51712E-02	8.60383E-11
4.02328E+04	6.52570E-02	3.27118E-11
4.82230E+04	5.72640E-02	2.97599E-11
5.53870E+04	5.17637E-02	3.24089E-11
6.18470E+04	4.81396E-02	2.23236E-11
7.26610E+04	4.39461E-02	5.44075E-12
